     0/299       12G   0.06248   0.04434   0.00794    0.1148       135       928   0.03445   0.04646   0.01037  0.001754    0.1156   0.08838  0.008335
     1/299       12G   0.05547   0.03416  0.002876   0.09251       131       768    0.5391     0.521    0.5271    0.1304    0.1034   0.06733  0.005561
     2/299       12G   0.04863   0.02724  0.001665   0.07754       139       896    0.4807    0.4596    0.4047     0.122   0.09432    0.0706   0.01248
     3/299       12G   0.04184   0.02491  0.001268   0.06802       142       480    0.3341    0.7148    0.2244   0.04274    0.0894    0.6477   0.01316
     4/299       12G   0.03423   0.02269   0.00132   0.05824       138       416    0.7831    0.8017     0.769    0.3531    0.0838   0.06165  0.006194
     5/299       12G   0.02701   0.02127 0.0003686   0.04864       164       320    0.9585    0.9602    0.9383    0.5585   0.07789   0.05668  0.005614
     6/299       12G   0.02562   0.02023 0.0002567   0.04611       144       960    0.9602    0.9596    0.9346     0.551   0.07827   0.06027  0.006711
     7/299       12G   0.02394   0.02068 0.0002697   0.04488       113       736    0.9721    0.9723    0.9663     0.513   0.08171   0.06346  0.006039
     8/299       12G   0.02587   0.01984 0.0002013   0.04591       145       352    0.9589    0.9592    0.9512    0.5731   0.07573   0.05535  0.006244
     9/299       12G   0.02688   0.01873  0.000335   0.04595       166       448    0.9875    0.9876    0.9832    0.6465   0.07716   0.06024  0.006066
    10/299       12G   0.02942   0.01895 0.0003036   0.04867       152       544    0.9874    0.9842    0.9848    0.6694   0.07548   0.05923  0.006131
    11/299       12G   0.02828   0.01897 0.0002487    0.0475       141       736    0.9898    0.9899    0.9908    0.7361   0.07626   0.05665  0.006114
    12/299       12G   0.02872   0.01789 0.0003367   0.04695       127       672    0.9882     0.987    0.9859    0.7456   0.07593    0.0573  0.005968
    13/299       12G   0.02517   0.01799 0.0001885   0.04335       136       448    0.9921    0.9907    0.9903    0.7471   0.07372   0.05673  0.005475
    14/299       12G    0.0244    0.0177 0.0002051    0.0423       151       960    0.9842     0.983    0.9807    0.6624   0.07644   0.05558   0.00676
    15/299       12G   0.02262   0.01719 0.0001217   0.03992       112       864    0.9954    0.9936    0.9939    0.7571   0.07513   0.05557  0.006236
    16/299       12G    0.0243   0.01766 0.0001306   0.04209       117       736    0.9953    0.9812    0.9847    0.6974   0.07547   0.05664  0.005909
    17/299       12G   0.02549   0.01735  0.000211   0.04306       139       928    0.9946    0.9935    0.9932    0.7444   0.07609   0.05709  0.005846
    18/299       12G   0.02343   0.01729 0.0001264   0.04085       147       640    0.9931    0.9851    0.9861     0.682    0.0752   0.05419  0.006735
    19/299       12G   0.02699   0.01776 0.0002089   0.04496       134       448    0.9978    0.9954    0.9965    0.7055   0.07388   0.05657   0.00547
    20/299       12G   0.02536   0.01716 0.0001013   0.04262       112       672    0.9861    0.9842    0.9839    0.7094    0.0759   0.05703  0.005366
    21/299       12G   0.02596   0.01648 0.0002282   0.04267       161       800    0.9952     0.991    0.9913    0.7492   0.07303   0.05862  0.005491
    22/299       12G   0.02552   0.01632 0.0002632    0.0421       114       864    0.9974    0.9911    0.9917    0.7276   0.07305    0.0564  0.005052
    23/299       12G   0.02416   0.01694 0.0002309   0.04134       143       352    0.9934    0.9883    0.9855    0.7613   0.07357    0.0607  0.004383
    24/299       12G   0.02055   0.01674 0.0001512   0.03744       113       512     0.977    0.9785    0.9888    0.7883   0.07325   0.05852    0.0045
    25/299       12G   0.02199   0.01632 0.0003126   0.03862       115       352    0.9928    0.9941     0.995    0.7966   0.07353   0.05976  0.004083
    26/299       12G    0.0239   0.01684 0.0001528   0.04089       151       576    0.9769    0.9735    0.9816    0.7347   0.07255   0.05754   0.00333
    27/299       12G   0.02107   0.01625  0.000207   0.03753       146       896    0.9819    0.9642    0.9868    0.7291   0.07378   0.05561  0.003641
    28/299       12G   0.02309   0.01645 0.0002222   0.03976       131       352    0.9661    0.9523    0.9842    0.7541   0.07334   0.05564  0.002977
    29/299       12G   0.02158   0.01637 0.0001166   0.03806       157       640    0.9967    0.9956    0.9963    0.7842   0.07329   0.05611  0.003143
    30/299       12G   0.02078   0.01505 0.0001805   0.03602       139       928    0.9857    0.9894    0.9908    0.7979   0.07267   0.05534  0.003382
    31/299       12G    0.0206   0.01516 0.0001766   0.03594       157       544    0.9967    0.9953    0.9967    0.7227   0.07402   0.05664  0.003135
    32/299       12G   0.02056   0.01558 9.397e-05   0.03623       152       864    0.9864      0.98    0.9817     0.763    0.0733   0.05823  0.003363
    33/299       12G   0.02059   0.01496 0.0003075   0.03586       137       736    0.9637    0.9708    0.9744    0.7268   0.07205   0.05832  0.003179
    34/299       12G   0.02107   0.01521 0.0002376   0.03652       149       448    0.9902    0.9958    0.9959    0.7828   0.07267   0.06279  0.002947
    35/299       12G    0.0187   0.01579 0.0001233   0.03461       127       448    0.9888    0.9906    0.9908    0.7775   0.07175   0.05924  0.002855
    36/299       12G   0.02072   0.01552 9.575e-05   0.03634       131       512    0.9965    0.9955    0.9962    0.7731    0.0722   0.06095  0.003194
    37/299       12G   0.01838   0.01501  0.000133   0.03353       153       544    0.9908    0.9841    0.9862    0.7249   0.07329   0.05668  0.003149
    38/299       12G   0.02216   0.01566 6.702e-05   0.03788       138       736    0.9967    0.9959    0.9962    0.7934   0.07196   0.05929  0.002454
    39/299       12G   0.01897   0.01445 8.985e-05   0.03351       118       960    0.9904    0.9879    0.9851    0.7864   0.07205    0.0566  0.002951
    40/299       12G   0.02231   0.01395 8.042e-05   0.03634       154       640    0.9855    0.9882    0.9908    0.7715   0.07181   0.05576  0.002682
    41/299       12G   0.02387   0.01487  0.000224   0.03896       105       480     0.986     0.981    0.9791    0.7503   0.07246   0.05873  0.002816
    42/299       12G    0.0278   0.01606 7.096e-05   0.04392       122       576    0.9906    0.9907    0.9917    0.7652   0.07099   0.05623   0.00262
    43/299       12G    0.0272   0.01459 8.213e-05   0.04187       128       640    0.9852    0.9929    0.9914    0.7347   0.07073   0.06149  0.003197
    44/299       12G   0.02802   0.01504 0.0002771   0.04334       120       704    0.9969    0.9846    0.9914    0.7726   0.07045   0.05944  0.002681
    45/299       12G   0.02743   0.01492 0.0001666   0.04251       125       448     0.996    0.9844    0.9962    0.7693   0.07098   0.06602  0.003201
    46/299       12G   0.02974    0.0158 0.0005607    0.0461       150       704    0.9847    0.9868    0.9863    0.7443   0.07135   0.06632  0.002081
    47/299       12G   0.02792   0.01655 0.0004408   0.04491       142       864     0.983    0.9846    0.9849    0.6866   0.06959   0.07606  0.002301
    48/299       12G   0.03289   0.01821 0.0004286   0.05153       148       960    0.9505    0.9322    0.9477    0.6031   0.07212   0.08146  0.004885
    49/299       12G   0.02626   0.01713 0.0003352   0.04372       123       416    0.9882    0.9859    0.9854    0.7219   0.07034   0.07391  0.006499
    50/299       12G   0.02439   0.01523 0.0001263   0.03975       130       896    0.9831    0.9841    0.9832     0.757   0.06908   0.07158  0.004765
    51/299       12G   0.02585   0.01544 0.0001481   0.04144       162       800    0.9925    0.9903    0.9913    0.8086   0.06836   0.07265  0.004841
    52/299       12G   0.02834   0.01678 0.0003594   0.04548       141       640    0.9838     0.984    0.9832    0.7401   0.07183   0.06699  0.002694
    53/299       12G    0.0252   0.01537 0.0003082   0.04088       189       416    0.9867    0.9689    0.9848    0.7755   0.07023   0.06903  0.002415
    54/299       12G   0.02598   0.01535 0.0001791   0.04151       160       928    0.9958    0.9865    0.9916    0.7609   0.07026   0.06832  0.002251
    55/299       12G   0.02734    0.0155 0.0001731   0.04301       111       704    0.9958    0.9945    0.9932    0.7565   0.07013   0.07643  0.002253
    56/299       12G   0.02816   0.01492 0.0002166    0.0433       154       576    0.9967    0.9963    0.9965    0.7688   0.06961   0.07058  0.001941
    57/299       12G   0.02894   0.01554 0.0001892   0.04467       140       352    0.9865     0.978     0.985    0.7757   0.07035   0.07095  0.002629
    58/299       12G   0.02654   0.01441 0.0001859   0.04114       150       608    0.9889    0.9867    0.9911     0.807   0.06906   0.06921  0.002487
    59/299       12G   0.03274   0.01569 0.0002577   0.04868       142       576    0.9893    0.9805    0.9821    0.7456   0.06908   0.06713  0.002169
    60/299       12G    0.0295   0.01533 0.0001786   0.04501       168       544    0.9907    0.9844    0.9887    0.7922   0.06831    0.0692  0.002332
    61/299       12G   0.02866   0.01465 0.0001611   0.04347       112       384    0.9928    0.9577    0.9803    0.7766   0.06787   0.07135  0.002016
    62/299       12G   0.02972   0.01493 0.0002674   0.04492       150       768    0.9876    0.9665    0.9872     0.723   0.06873   0.07434  0.002111
    63/299       12G   0.03021   0.01427 0.0001198   0.04459       163       768     0.987    0.9808    0.9837    0.7877   0.06893   0.07119  0.002317
    64/299       12G    0.0326   0.01585 0.0001948   0.04865       135       512    0.9915    0.9731    0.9768     0.769   0.06922   0.07733  0.002329
    65/299       12G   0.02969   0.01512 0.0001857   0.04499       109       416    0.9931    0.9917    0.9917    0.7624   0.06865   0.07002   0.00197
    66/299       12G    0.0318   0.01457  9.22e-05   0.04646       139       512    0.9969    0.9934    0.9969    0.7843   0.06895   0.06793  0.002723
    67/299       12G   0.02996   0.01421  9.24e-05   0.04426       117       800    0.9867    0.9744    0.9816    0.7839   0.06868   0.06734  0.003058
    68/299       12G   0.03088   0.01404 0.0002093   0.04513       155       416    0.9895    0.9815    0.9815    0.7844   0.06788   0.07215  0.003462
    69/299       12G   0.03105   0.01458  0.000114   0.04575       158       864    0.9682    0.9671    0.9814    0.7716   0.06735   0.07598  0.002729
    70/299       12G   0.03114   0.01469 0.0001475   0.04598       181       704    0.9929    0.9871    0.9915    0.7912   0.06698   0.07687  0.002206
    71/299       12G   0.03128     0.015  0.000134   0.04641       166       320    0.9826    0.9984    0.9962     0.845   0.06646   0.08007  0.002492
    72/299       12G   0.02792   0.01385 0.0001466   0.04192       123       416    0.9904     0.997    0.9963    0.8398   0.06664   0.08148  0.002266
    73/299       12G   0.02851   0.01406 7.045e-05   0.04263       161       352    0.9919    0.9791    0.9806    0.7842   0.06793    0.0762  0.002419
    74/299       12G   0.02671   0.01409 0.0001454   0.04094       146       928    0.9953    0.9817    0.9866    0.7749   0.06842    0.0754  0.003002
    75/299       12G   0.02772   0.01376 0.0001325   0.04161       125       544     0.993    0.9904    0.9914    0.8106   0.06788   0.07092  0.003625
    76/299       12G    0.0286   0.01372 7.326e-05   0.04239       136       960    0.9881     0.987    0.9871    0.8097   0.06741   0.07074   0.00458
    77/299       12G    0.0295   0.01305 0.0001871   0.04273       103       736    0.9993    0.9879    0.9922    0.7937   0.06841    0.0731  0.003277
    78/299       12G   0.03191   0.01347 0.0001301    0.0455       127       352     0.996    0.9919    0.9923    0.8124   0.06727   0.07063  0.003338
    79/299       12G   0.03152   0.01371 0.0003113   0.04554       120       512    0.9914    0.9941    0.9963     0.821   0.06742    0.0729  0.003157
    80/299       12G   0.02823   0.01354 0.0001494   0.04192       142       448    0.9955     0.994    0.9967    0.8094    0.0675   0.07229   0.00253
    81/299       12G   0.02734   0.01303 0.0002459   0.04061       118       416    0.9983    0.9906    0.9922    0.7999   0.06796   0.07208  0.005764
    82/299       12G   0.03182   0.01414 0.0001767   0.04614       149       960    0.9902     0.997     0.997    0.8102   0.06843   0.07113  0.005853
    83/299       12G   0.02985   0.01377 4.514e-05   0.04366       115       768    0.9911    0.9957    0.9968    0.7938   0.06913   0.07047  0.006519
    84/299       12G   0.03015   0.01425 0.0001021    0.0445       130       864    0.9964    0.9865    0.9968    0.8239   0.06886   0.07125  0.004544
    85/299       12G   0.02956   0.01347 0.0001404   0.04317       127       864    0.9906    0.9896    0.9962    0.8457   0.06779   0.07278  0.005019
    86/299       12G   0.02908   0.01376 0.0001681   0.04301       157       896      0.99    0.9904     0.992     0.833   0.06728   0.07466  0.003617
    87/299       12G   0.02857   0.01325 0.0001141   0.04193       130       832    0.9882    0.9813     0.986    0.8305   0.06737   0.07402    0.0026
    88/299       12G   0.03116   0.01403 9.206e-05   0.04528       166       480    0.9941    0.9942    0.9925     0.827   0.06603   0.07861  0.002654
    89/299       12G   0.03052   0.01337 0.0002049   0.04409       158       576    0.9891    0.9982    0.9971    0.8139   0.06736    0.0744  0.002772
    90/299       12G   0.03049   0.01325 5.846e-05   0.04379       116       416    0.9924    0.9967    0.9969    0.8358   0.06726   0.07165  0.002121
    91/299       12G   0.03096   0.01374 9.647e-05   0.04479       146       928    0.9967    0.9914     0.997    0.8379   0.06715   0.07172  0.003131
    92/299       12G   0.03017   0.01288 7.693e-05   0.04313       156       832    0.9877    0.9969    0.9967    0.8306   0.06731   0.07264  0.002239
    93/299       12G   0.02721   0.01308  6.25e-05   0.04035       125       608    0.9888    0.9954    0.9966    0.8126   0.06857   0.06883  0.002309
    94/299       12G   0.03069   0.01415 0.0001248   0.04497       121       800     0.992    0.9968    0.9969    0.8104   0.06734   0.07031  0.002585
    95/299       12G   0.02961   0.01321 6.439e-05   0.04289       123       416    0.9912    0.9968    0.9958    0.8185   0.06757   0.07013  0.003446
    96/299       12G   0.02931   0.01279 7.328e-05   0.04218       126       704    0.9902    0.9957    0.9964    0.8373   0.06687   0.07282  0.007117
    97/299       12G   0.03085   0.01313 0.0001053   0.04409       120       672    0.9944    0.9979    0.9968    0.7925    0.0675    0.0727  0.004927
    98/299       12G   0.03003   0.01333   0.00018   0.04353       150       640    0.9941    0.9959    0.9966    0.8439   0.06728   0.07234  0.003429
    99/299       12G   0.03294   0.01363 6.227e-05   0.04664       134       480    0.9937    0.9971    0.9965    0.8184    0.0671   0.07298  0.003894
   100/299       12G   0.03125   0.01305 8.294e-05   0.04438       164       864    0.9888    0.9947    0.9921    0.8032   0.06685   0.07431  0.004047
   101/299       12G   0.02782   0.01274 4.894e-05   0.04061       161       800    0.9942    0.9969    0.9968    0.7978   0.06716   0.07149  0.004676
   102/299       12G   0.02998   0.01269 0.0001169   0.04279       123       736    0.9943    0.9969    0.9965     0.829   0.06734    0.0712  0.005306
   103/299       12G   0.03044   0.01306 0.0001028    0.0436       136       832    0.9939    0.9984    0.9967    0.8427   0.06707   0.07316  0.004672
   104/299       12G   0.02829   0.01283  0.000104   0.04123       150       448    0.9911    0.9959    0.9971    0.8636   0.06648   0.07278  0.005217
   105/299       12G   0.02916   0.01357 0.0001638   0.04289       130       352    0.9946    0.9984    0.9971    0.8315   0.06689   0.07164  0.006739
   106/299       12G   0.02902     0.012 9.379e-05   0.04111       117       800    0.9922     0.996    0.9959    0.8133    0.0667   0.07339   0.00516
   107/299       12G   0.03199   0.01369 0.0001547   0.04583       115       544    0.9936    0.9946    0.9971    0.8395   0.06665   0.07493  0.005019
   108/299       12G   0.02832   0.01257 0.0001556   0.04105       191       608    0.9923    0.9984     0.997    0.8185   0.06698   0.07548  0.003622
   109/299       12G   0.03044   0.01302 7.073e-05   0.04352       110       480    0.9914    0.9969    0.9969    0.8514   0.06704   0.07121  0.004926
   110/299       12G   0.03055   0.01306 0.0001009   0.04371       128       352    0.9899    0.9971    0.9965    0.8513   0.06709   0.07257  0.004858
   111/299       12G   0.02938   0.01293 0.0001411   0.04245       142       960    0.9926    0.9972     0.997    0.8357   0.06689   0.07231  0.004983
   112/299       12G   0.03154   0.01319 0.0001471   0.04488       119       832    0.9864    0.9971    0.9971    0.8446   0.06646   0.07357  0.004781
   113/299       12G   0.03018   0.01318 0.0002545   0.04362       106       608    0.9917     0.997    0.9968    0.8228   0.06611   0.07549  0.004231
   114/299       12G   0.02969   0.01381 0.0002035    0.0437       134       704     0.994    0.9959    0.9965    0.8234   0.06405   0.08574  0.004271
   115/299       12G   0.02805   0.01382  0.000261   0.04213       148       832    0.9859    0.9971    0.9965    0.8238   0.06757   0.08067  0.001707
   116/299       12G   0.03335   0.01406  0.000107   0.04752       145       672     0.993    0.9956    0.9962    0.8286   0.06688   0.07713  0.001731
   117/299       12G    0.0316   0.01289 7.303e-05   0.04456       196       544    0.9957    0.9958    0.9965    0.8203   0.06557   0.07861  0.001764
   118/299       12G   0.02997   0.01266 0.0001495   0.04278       115       800    0.9846    0.9829    0.9806    0.7797   0.06612    0.0728  0.001803
   119/299       12G   0.02934   0.01284 0.0001251    0.0423       129       416    0.9932    0.9969    0.9969    0.8285   0.06592   0.07431  0.001971
   120/299       12G   0.03141   0.01251 0.0001831    0.0441       115       800    0.9942     0.993    0.9968    0.8254   0.06516     0.081  0.002022
   121/299       12G   0.03014   0.01283 0.0001327    0.0431       190       736     0.992    0.9899    0.9915    0.8275   0.06585   0.07702  0.001709
   122/299       12G   0.03115   0.01325 0.0001337   0.04454       139       352    0.9954    0.9953     0.997    0.8193   0.06601   0.07614  0.001596
   123/299       12G   0.02714   0.01204 0.0001643   0.03935       131       928    0.9912    0.9971    0.9972      0.82   0.06541   0.08163  0.001741
   124/299       12G   0.02802   0.01204 9.799e-05   0.04015       155       608    0.9912    0.9895    0.9966    0.8321   0.06473   0.08354  0.002089
   125/299       12G   0.02859   0.01178 0.0001447   0.04051       133       608    0.9933    0.9934     0.997    0.8325   0.06427   0.08628  0.001992
   126/299       12G   0.02827   0.01227 0.0001763   0.04071       140       416    0.9946     0.996    0.9968    0.8487   0.06477    0.0836  0.001654
   127/299       12G   0.02798    0.0122 8.901e-05   0.04027       116       576    0.9922    0.9973    0.9971    0.8539   0.06578   0.08009  0.001813
   128/299       12G   0.02815   0.01284 0.0001535   0.04114       144       512    0.9938    0.9959    0.9969    0.8516   0.06587   0.08003  0.001658
   129/299       12G   0.02958   0.01224 5.622e-05   0.04187       166       832      0.99    0.9933    0.9968     0.843   0.06555    0.0817  0.001673
   130/299       12G   0.02741    0.0117 7.099e-05   0.03918       109       800    0.9939    0.9958    0.9969     0.835   0.06424   0.08607  0.001645
   131/299       12G   0.03014   0.01203 7.695e-05   0.04225       161       640    0.9966    0.9919     0.997    0.8572   0.06426    0.0859  0.001744
   132/299       12G   0.02844   0.01188 7.076e-05   0.04039       122       960    0.9954    0.9959    0.9971    0.8603   0.06458   0.08442  0.001759
   133/299       12G   0.03095   0.01306 0.0001002   0.04411       119       320    0.9907    0.9933    0.9914    0.8513   0.06497   0.08466  0.001728
   134/299       12G   0.03042   0.01235 3.526e-05   0.04281       121       896    0.9919    0.9947    0.9966    0.8507   0.06517   0.08394   0.00181
   135/299       12G   0.02964   0.01185 7.313e-05   0.04156       168       672    0.9955    0.9972    0.9973    0.8575   0.06441   0.08604  0.001765
   136/299       12G   0.02925   0.01218 9.103e-05   0.04152       127       576    0.9968    0.9934    0.9973    0.8578   0.06374   0.08917  0.001738
   137/299       12G    0.0287   0.01178   0.00013   0.04062       128       832    0.9932    0.9947    0.9971    0.8556   0.06388   0.08862  0.001921
   138/299       12G   0.02803    0.0123 9.158e-05   0.04042       161       448    0.9931    0.9933     0.997    0.8519   0.06525   0.08095  0.001936
   139/299       12G   0.02821   0.01233 0.0001086   0.04066       131       416    0.9959     0.993    0.9927    0.7892   0.06602   0.07992  0.002019
   140/299       12G   0.02748   0.01191 0.0001042    0.0395       130       672    0.9994    0.9956    0.9974    0.8158   0.06554   0.07873  0.002284
   141/299       12G   0.02989   0.01228 0.0001255   0.04229       147       608     0.998    0.9941    0.9973    0.8166   0.06458   0.08203  0.002088
   142/299       12G   0.02865   0.01183 6.781e-05   0.04055       131       640    0.9944    0.9938    0.9969    0.8199   0.06405   0.08503  0.002075
   143/299       12G   0.02874   0.01143  5.88e-05   0.04022       120       640    0.9968    0.9929    0.9971    0.8234   0.06414   0.08448  0.001927
   144/299       12G   0.02734    0.0115 6.001e-05    0.0389       124       928    0.9943    0.9932     0.997    0.8289   0.06444    0.0838  0.002089
   145/299       12G   0.02982   0.01212 0.0001488   0.04208       118       416    0.9895    0.9934    0.9969    0.8416   0.06427   0.08404  0.002132
   146/299       12G   0.02996   0.01218 0.0001624   0.04231       146       384     0.992    0.9944    0.9969    0.8398   0.06435   0.08537  0.001925
   147/299       12G    0.0302   0.01211 9.433e-05    0.0424       127       672    0.9946    0.9958    0.9973    0.8521   0.06376   0.08697  0.001815
   148/299       12G   0.02846   0.01173 7.463e-05   0.04026       123       384    0.9939    0.9957    0.9972    0.8545   0.06345   0.08846  0.001776
   149/299       12G   0.02732   0.01079 7.047e-05   0.03818       146       480    0.9914    0.9983    0.9972    0.8592   0.06334   0.08993   0.00183
   150/299       12G   0.02721   0.01102 0.0001694    0.0384       199       768     0.994    0.9969     0.997    0.8606   0.06324    0.0914   0.00183
   151/299       12G   0.02893   0.01226 0.0001869   0.04138       145       864    0.9961     0.997    0.9971    0.8697   0.06343   0.08941  0.001815
   152/299       12G    0.0247   0.01293 0.0002409   0.03788       121       736    0.9873    0.9968    0.9967    0.8639   0.06432   0.08619  0.002421
   153/299       12G   0.02483   0.01452 0.0002052   0.03955       125       320    0.9914    0.9953    0.9962    0.8277   0.06503   0.08723  0.003157
   154/299       12G   0.02431   0.01598 0.0002273   0.04051       136       800    0.9955     0.993    0.9971    0.7912   0.06752   0.08564  0.005428
   155/299       12G   0.03098   0.01747 0.0003285   0.04878       154       640    0.9657     0.973    0.9774    0.7269   0.06794    0.0854  0.004887
   156/299       12G   0.02851    0.0166 0.0002628   0.04537       136       704    0.9724    0.9766    0.9745    0.7378   0.06929   0.08125  0.005094
   157/299       12G    0.0348   0.02142 0.0007572   0.05698       120       544    0.9426    0.9454    0.9467    0.5974   0.06989   0.09048  0.003251
   158/299       12G   0.03458   0.01978 0.0003301   0.05469       108       352    0.9662    0.9715    0.9687     0.651   0.06865   0.08949  0.002796
   159/299       12G   0.03205   0.01699 0.0003086   0.04935       125       320    0.9836    0.9808    0.9793    0.7299   0.06695   0.08792  0.002085
   160/299       12G   0.03108   0.01559 0.0002133   0.04687       133       608    0.9846    0.9853    0.9833     0.762   0.06604   0.08926  0.001567
   161/299       12G   0.03195   0.01514  0.000166   0.04725       117       320    0.9894    0.9868    0.9847    0.7764   0.06543   0.09044  0.001429
   162/299       12G   0.03172    0.0148 0.0001174   0.04664       122       768    0.9865    0.9882    0.9862    0.7906   0.06491   0.09028  0.001494
   163/299       12G   0.03076   0.01405 0.0001286   0.04494       124       384    0.9915    0.9883    0.9921    0.7961   0.06476   0.09046   0.00175
   164/299       12G      0.03   0.01365 0.0002052   0.04385       134       928    0.9946    0.9933    0.9971     0.806   0.06432   0.09008  0.001737
   165/299       12G   0.03347   0.01412  9.66e-05   0.04769       156       512    0.9949    0.9932     0.997    0.8117   0.06411   0.08961  0.001788
   166/299       12G   0.03288   0.01374 0.0001528   0.04677       145       832    0.9849    0.9884    0.9919     0.812   0.06388   0.08943  0.001774
   167/299       12G   0.03057   0.01368 0.0002153   0.04447       184       800    0.9798    0.9909    0.9916     0.819   0.06364   0.08958  0.001717
   168/299       12G   0.03149   0.01366 0.0001478    0.0453       107       896    0.9899    0.9822    0.9913    0.8167   0.06379   0.08879  0.001748
   169/299       12G   0.03062   0.01381 0.0001229   0.04455       113       640    0.9943    0.9843    0.9922    0.8218   0.06358    0.0899  0.001706
   170/299       12G   0.02931   0.01283 0.0001255   0.04227       123       416    0.9916    0.9907    0.9927    0.8166   0.06379   0.09048  0.001638
   171/299       12G   0.03111   0.01323 0.0002339   0.04458       115       320    0.9853    0.9946     0.996    0.8234     0.064   0.08926  0.001774
   172/299       12G   0.02783   0.01429  6.65e-05   0.04219       146       800    0.9879    0.9932     0.996    0.8199   0.06379   0.08884  0.001965
   173/299       12G    0.0206   0.01622  8.23e-05    0.0369       109       832    0.9914     0.994    0.9962    0.8173   0.06229   0.09013  0.001641
   174/299       12G   0.01919   0.01573 8.611e-05     0.035       156       960    0.9911    0.9931    0.9956    0.8184    0.0596   0.09699  0.001445
   175/299       12G   0.01908   0.01484 0.0001283   0.03405       108       832    0.9952    0.9943    0.9963     0.821   0.05679     0.104  0.001375
   176/299       12G   0.01724   0.01558 0.0001287   0.03295       132       320    0.9909    0.9957     0.996    0.8243   0.05674     0.102  0.001395
   177/299       12G   0.01728   0.01544 9.116e-05   0.03282       180       928     0.994    0.9918     0.996    0.8251   0.05676    0.1007   0.00142
   178/299       12G   0.01652   0.01546  8.95e-05   0.03206       137       480    0.9906    0.9944    0.9961    0.8315   0.05645     0.101  0.001443
   179/299       12G   0.01701    0.0153 0.0001051   0.03242       125       416    0.9929    0.9957    0.9965    0.8354   0.05622    0.1011  0.001481
   180/299       12G   0.01737   0.01545 0.0001169   0.03294       132       768    0.9904    0.9969    0.9966    0.8384    0.0558    0.1027  0.001539
   181/299       12G   0.01721   0.01561 0.0001311   0.03295       105       384    0.9897     0.998    0.9966    0.8433    0.0554    0.1035  0.001581
   182/299       12G   0.01593    0.0141 8.932e-05   0.03013       125       480    0.9913    0.9954    0.9966    0.8397   0.05533    0.1043  0.001652
   183/299       12G    0.0165   0.01473 8.695e-05   0.03131       121       320    0.9888    0.9944    0.9965    0.8426   0.05534    0.1042  0.001683
   184/299       12G   0.01657   0.01435 8.316e-05     0.031       186       704    0.9867    0.9957    0.9963      0.84   0.05529    0.1049  0.001689
   185/299       12G   0.01557   0.01499 8.251e-05   0.03064       148       448    0.9904    0.9956    0.9966    0.8365   0.05503    0.1059  0.001679
   186/299       12G   0.01527   0.01315 0.0001673   0.02858       123       672    0.9893    0.9958    0.9965    0.8399   0.05486    0.1062  0.001677
   187/299       12G   0.01567   0.01416 7.434e-05    0.0299       141       480    0.9866    0.9969    0.9963    0.8411   0.05498     0.106  0.001719
   188/299       12G   0.01647   0.01413 8.302e-05   0.03069       112       544    0.9882    0.9983    0.9965    0.8416   0.05515    0.1056  0.001751
   189/299       12G   0.01572   0.01431 6.287e-05   0.03009       138       448    0.9895    0.9968    0.9965    0.8435    0.0554    0.1054  0.001792
   190/299       12G    0.0154   0.01382 8.099e-05    0.0293       150       704    0.9874    0.9957    0.9964    0.8419   0.05593    0.1052  0.001844
   191/299       12G   0.01519   0.01384 9.672e-05   0.02912       125       736    0.9875    0.9957    0.9965    0.8429   0.05615     0.105  0.001879
   192/299       12G   0.01502   0.01318 9.219e-05   0.02829       126       864    0.9919    0.9896    0.9965    0.8468    0.0562    0.1051  0.001906
   193/299       12G   0.01513   0.01362 5.951e-05   0.02881       132       512    0.9917    0.9882    0.9964    0.8448   0.05628    0.1048  0.001908
   194/299       12G   0.01489   0.01422 8.473e-05    0.0292       122       608    0.9913    0.9883    0.9967    0.8455   0.05625     0.105  0.001926
   195/299       12G    0.0145   0.01354 5.177e-05   0.02809       118       736    0.9849    0.9984    0.9967    0.8427   0.05639    0.1051  0.001931
   196/299       12G   0.01472   0.01375 7.217e-05   0.02855       134       608    0.9843    0.9983    0.9965    0.8405   0.05639    0.1055  0.001927
   197/299       12G   0.01522   0.01286 8.025e-05   0.02815       136       320    0.9843    0.9983    0.9967    0.8425   0.05651    0.1057  0.001963
   198/299       12G   0.01458   0.01324 5.865e-05   0.02788       156       640    0.9781    0.9975    0.9965    0.8396   0.05654    0.1057  0.001985
   199/299       12G   0.01506   0.01342  0.000128   0.02861       132       896    0.9826     0.994    0.9965    0.8338   0.05661    0.1053  0.001989
   200/299       12G   0.01479   0.01431 4.874e-05   0.02914       140       320    0.9831    0.9921    0.9956    0.8333   0.05677    0.1053  0.001986
   201/299       12G    0.0143   0.01243 6.199e-05    0.0268       114       352    0.9795    0.9984    0.9956    0.8349   0.05681    0.1054  0.001995
   202/299       12G   0.01437   0.01283 5.659e-05   0.02726       136       768    0.9816    0.9972    0.9956    0.8342   0.05671    0.1058  0.002029
   203/299       12G   0.01442   0.01346 4.894e-05   0.02793       134       544    0.9824    0.9984    0.9962    0.8351   0.05689     0.106  0.002066
   204/299       12G   0.01418    0.0137 9.016e-05   0.02797       145       960    0.9833    0.9981    0.9961    0.8327    0.0571    0.1054  0.002078
   205/299       12G   0.01417   0.01343 7.786e-05   0.02768       142       832     0.982    0.9983    0.9961    0.8328   0.05726    0.1056  0.002069
   206/299       12G   0.01403   0.01284  6.15e-05   0.02693       187       704    0.9826    0.9984    0.9962    0.8338   0.05735    0.1056  0.002085
   207/299       12G   0.01406   0.01324 5.935e-05   0.02735       137       960    0.9825    0.9983    0.9963    0.8369   0.05744    0.1056  0.002071
   208/299       12G   0.01392   0.01323 5.318e-05    0.0272       117       832    0.9818    0.9971    0.9966    0.8373   0.05747    0.1056  0.002044
   209/299       12G   0.01366   0.01335 6.714e-05   0.02707       121       768    0.9867    0.9946    0.9966    0.8441   0.05751    0.1054  0.002012
   210/299       12G   0.01401   0.01268 6.435e-05   0.02675       158       832    0.9871    0.9959    0.9969    0.8459   0.05755    0.1053  0.001972
   211/299       12G   0.01367    0.0129 4.372e-05   0.02661       185       544    0.9879    0.9958     0.997    0.8475   0.05756    0.1057  0.001958
   212/299       12G   0.01355   0.01279 5.028e-05   0.02639       128       512    0.9866    0.9971     0.997    0.8478   0.05764    0.1056  0.001956
   213/299       12G   0.01353   0.01284 5.836e-05   0.02643       164       352    0.9858    0.9971     0.997    0.8513   0.05776    0.1059  0.001952
   214/299       12G   0.01332    0.0133 5.054e-05   0.02667       123       960    0.9857    0.9984     0.997    0.8516   0.05785     0.106  0.001958
   215/299       12G   0.01295   0.01226 4.325e-05   0.02525       163       576    0.9895    0.9971    0.9972    0.8536   0.05799    0.1061  0.001959
   216/299       12G   0.01262   0.01152 5.801e-05    0.0242       140       512    0.9872    0.9956     0.997    0.8524   0.05805    0.1063  0.001958
   217/299       12G   0.01298   0.01196 3.587e-05   0.02497       184       800    0.9864    0.9958    0.9968    0.8523   0.05817    0.1062  0.001968
   218/299       12G   0.01326   0.01281 5.501e-05   0.02612       119       896    0.9861    0.9959    0.9967    0.8502   0.05821    0.1061  0.001965
   219/299       12G   0.01324   0.01273 3.518e-05   0.02601       134       320    0.9866    0.9982     0.997      0.85   0.05832     0.106  0.001963
   220/299       12G   0.01285   0.01253 7.624e-05   0.02546       171       960     0.988    0.9972     0.997    0.8496   0.05838    0.1061  0.001961
   221/299       12G   0.01276   0.01242 5.321e-05   0.02523       151       384    0.9884    0.9972     0.997      0.85   0.05846    0.1059  0.001956
   222/299       12G   0.01254   0.01196 7.189e-05   0.02457       168       448    0.9883    0.9972    0.9971    0.8524   0.05852    0.1057  0.001938
   223/299       12G   0.01301   0.01259 5.302e-05   0.02566       155       320    0.9882    0.9971     0.997    0.8508   0.05847    0.1054  0.001938
   224/299       12G   0.01306   0.01252 4.602e-05   0.02562       162       928     0.988    0.9969     0.997    0.8506   0.05835    0.1053  0.001937
   225/299       12G   0.01269    0.0126 9.407e-05   0.02538       130       800    0.9894    0.9972     0.997    0.8486   0.05827    0.1054  0.001925
   226/299       12G   0.01287   0.01255 0.0001004   0.02553       118       864    0.9867    0.9972    0.9967    0.8492   0.05837    0.1055  0.001917
   227/299       12G   0.01237   0.01193 5.437e-05   0.02436       141       576    0.9869    0.9972    0.9968    0.8504   0.05849    0.1057  0.001899
   228/299       12G   0.01249   0.01166 7.452e-05   0.02422       143       768    0.9882    0.9972     0.997    0.8505   0.05863    0.1059  0.001882
   229/299       12G   0.01233   0.01212 4.374e-05   0.02449       129       320    0.9883    0.9972    0.9971    0.8518   0.05864    0.1058  0.001873
   230/299       12G   0.01193   0.01225 3.408e-05   0.02421       115       960    0.9896    0.9972    0.9971     0.852   0.05868    0.1058  0.001864
   231/299       12G   0.01205   0.01301  4.14e-05   0.02511       143       608    0.9887    0.9973     0.997    0.8526   0.05877    0.1056  0.001867
   232/299       12G   0.01187   0.01224 3.338e-05   0.02415       119       672     0.985    0.9973    0.9969     0.856   0.05882    0.1057  0.001866
   233/299       12G   0.01219    0.0117 5.169e-05   0.02395       152       448    0.9886    0.9973    0.9972    0.8579   0.05887    0.1057  0.001865
   234/299       12G   0.01207   0.01207 5.085e-05   0.02419       167       544    0.9871    0.9973     0.997    0.8589   0.05891    0.1055  0.001856
   235/299       12G   0.01198   0.01206 3.898e-05   0.02408       171       800    0.9862    0.9973     0.997    0.8604   0.05897    0.1054  0.001858
   236/299       12G   0.01193   0.01263 5.702e-05   0.02462       136       640    0.9877    0.9972    0.9971    0.8624     0.059    0.1052  0.001857
   237/299       12G   0.01181   0.01146 3.543e-05   0.02331       140       544    0.9877    0.9971    0.9971     0.864   0.05906    0.1051  0.001852
   238/299       12G   0.01166     0.012 4.877e-05    0.0237       118       672     0.988    0.9972    0.9972    0.8654   0.05912    0.1051  0.001846
   239/299       12G   0.01217    0.0124 3.559e-05    0.0246       132       576    0.9879    0.9971    0.9972    0.8649   0.05919    0.1051  0.001839
   240/299       12G   0.01188   0.01197 3.414e-05   0.02389       119       416    0.9877    0.9972    0.9972    0.8646   0.05923     0.105  0.001835
   241/299       12G   0.01154   0.01173 2.875e-05   0.02329       127       928    0.9877    0.9971    0.9972    0.8657   0.05921     0.105  0.001833
   242/299       12G   0.01166   0.01222 3.769e-05   0.02392       123       736    0.9877     0.997    0.9972    0.8665   0.05927    0.1051  0.001826
   243/299       12G   0.01175   0.01139 8.172e-05   0.02322       109       544    0.9865    0.9971    0.9969     0.867   0.05935    0.1051  0.001822
   244/299       12G   0.01143    0.0119 3.676e-05   0.02337       134       672    0.9903    0.9959    0.9973    0.8679   0.05931     0.105  0.001823
   245/299       12G   0.01131   0.01144 6.962e-05   0.02281       153       896    0.9891    0.9957    0.9972     0.869   0.05933    0.1049  0.001822
   246/299       12G   0.01211   0.01248 5.476e-05   0.02464       146       416    0.9887    0.9959    0.9973    0.8697   0.05936    0.1048   0.00182
   247/299       12G   0.01175   0.01167 5.309e-05   0.02348       118       768      0.99    0.9959    0.9974    0.8714   0.05943    0.1049   0.00181
   248/299       12G   0.01164   0.01101 4.463e-05   0.02269       142       768    0.9888    0.9959    0.9973    0.8707   0.05945    0.1049  0.001806
   249/299       12G   0.01155   0.01124 7.214e-05   0.02287       133       512    0.9886    0.9972    0.9974    0.8719   0.05946    0.1049  0.001803
   250/299       12G   0.01131   0.01181 4.107e-05   0.02316       192       512    0.9896    0.9972    0.9975     0.873   0.05947    0.1048  0.001803
   251/299       12G    0.0117   0.01207 6.888e-05   0.02384       119       352    0.9897    0.9972    0.9975    0.8735   0.05953    0.1048  0.001796
   252/299       12G   0.01101   0.01169 3.007e-05   0.02273       110       448    0.9897    0.9972    0.9979    0.8745   0.05957    0.1048  0.001799
   253/299       12G   0.01176   0.01167 4.521e-05   0.02347       149       384    0.9895    0.9972    0.9978    0.8749   0.05958    0.1047    0.0018
   254/299       12G    0.0115   0.01111 6.902e-05   0.02268       136       672    0.9896    0.9971    0.9978    0.8748   0.05957    0.1045  0.001807
   255/299       12G   0.01115   0.01115 5.917e-05   0.02236       109       544    0.9897    0.9972    0.9978    0.8745   0.05956    0.1043  0.001813
   256/299       12G   0.01114    0.0113 4.736e-05   0.02248       117       320    0.9886    0.9972    0.9978    0.8756   0.05957    0.1043  0.001813
   257/299       12G   0.01131   0.01146 3.562e-05    0.0228       147       960    0.9897    0.9972    0.9978    0.8758   0.05962    0.1043  0.001808
   258/299       12G   0.01131   0.01235 3.138e-05    0.0237       129       896    0.9886    0.9972    0.9978    0.8754   0.05965    0.1042  0.001803
   259/299       12G   0.01105   0.01094 4.954e-05   0.02204       125       832    0.9884    0.9972    0.9978    0.8758   0.05965    0.1041  0.001805
   260/299       12G   0.01116    0.0117 4.546e-05   0.02291       125       768    0.9882    0.9972    0.9978    0.8768    0.0597    0.1041  0.001802
   261/299       12G   0.01115    0.0117 6.476e-05   0.02291       145       352    0.9883    0.9972    0.9979    0.8779   0.05973    0.1041  0.001799
   262/299       12G   0.01105   0.01169 4.327e-05   0.02278       142       736    0.9883    0.9972    0.9979    0.8771   0.05969    0.1038  0.001801
   263/299       12G    0.0108   0.01129  3.27e-05   0.02212       114       448    0.9882    0.9972    0.9979    0.8774   0.05962    0.1037  0.001805
   264/299       12G   0.01108    0.0118 3.421e-05   0.02291       140       832    0.9881    0.9972    0.9979    0.8776   0.05959    0.1036  0.001806
   265/299       12G   0.01071   0.01168 2.466e-05   0.02241       135       544    0.9879    0.9972    0.9979    0.8782   0.05954    0.1034   0.00181
   266/299       12G   0.01121   0.01166 3.911e-05    0.0229       137       480     0.988    0.9971    0.9979    0.8781   0.05955    0.1033  0.001811
   267/299       12G   0.01094   0.01133 4.403e-05   0.02232       122       352    0.9879    0.9971    0.9979    0.8782   0.05951    0.1031  0.001817
   268/299       12G   0.01078   0.01154 3.251e-05   0.02235       127       608    0.9879    0.9972    0.9979     0.878   0.05942     0.103  0.001827
   269/299       12G   0.01093   0.01152 7.163e-05   0.02252       172       768    0.9879    0.9971    0.9979     0.878    0.0594     0.103  0.001833
   270/299       12G   0.01086   0.01124 2.752e-05   0.02213       147       448    0.9878    0.9973     0.998    0.8784   0.05937    0.1029  0.001836
   271/299       12G   0.01129   0.01107 3.384e-05   0.02239       152       800    0.9878    0.9973     0.998    0.8792   0.05932    0.1029  0.001839
   272/299       12G   0.01064   0.01122 3.204e-05   0.02189       165       864    0.9865    0.9971    0.9979    0.8805   0.05927    0.1029  0.001842
   273/299       12G   0.01086   0.01118 2.598e-05   0.02207       124       672    0.9866    0.9972    0.9979    0.8816   0.05925    0.1029  0.001845
   274/299       12G   0.01091   0.01112 3.039e-05   0.02206       107       416    0.9864    0.9973    0.9975    0.8813   0.05926    0.1029  0.001844
   275/299       12G   0.01053   0.01123 4.224e-05   0.02181       113       640    0.9866    0.9973    0.9975     0.882   0.05927     0.103  0.001843
   276/299       12G   0.01071   0.01122 3.126e-05   0.02196       213       896    0.9894    0.9946    0.9976    0.8818   0.05927     0.103  0.001841
   277/299       12G   0.01053   0.01099 2.736e-05   0.02154       134       608    0.9894    0.9949    0.9976    0.8823   0.05932     0.103  0.001838
   278/299       12G   0.01085   0.01106 3.759e-05   0.02194       159       416    0.9893    0.9948    0.9976    0.8822   0.05934     0.103  0.001834
   279/299       12G   0.01082   0.01178 3.314e-05   0.02263       111       864    0.9893    0.9949    0.9976    0.8823   0.05935     0.103  0.001832
   280/299       12G   0.01098   0.01107 3.103e-05   0.02208       132       704    0.9893    0.9949    0.9976    0.8823   0.05937    0.1031  0.001828
   281/299       12G   0.01073   0.01072  4.17e-05   0.02148       105       832    0.9893    0.9948    0.9976    0.8835   0.05942    0.1031   0.00182
   282/299       12G   0.01083   0.01092 4.417e-05   0.02179       125       864    0.9905    0.9947    0.9976    0.8828   0.05944    0.1031  0.001815
   283/299       12G   0.01091   0.01119 2.978e-05   0.02213       148       736    0.9894     0.995    0.9976    0.8837   0.05949    0.1032   0.00181
   284/299       12G   0.01054    0.0116 4.158e-05   0.02218       121       480    0.9894    0.9949    0.9976    0.8839   0.05952    0.1033  0.001806
   285/299       12G   0.01068   0.01126 3.692e-05   0.02199       131       512    0.9881     0.995    0.9975     0.884   0.05956    0.1033  0.001799
   286/299       12G   0.01027   0.01049 3.577e-05    0.0208       167       320    0.9881    0.9949    0.9975    0.8842   0.05959    0.1033  0.001795
   287/299       12G   0.01042   0.01138 2.821e-05   0.02183       118       448    0.9881    0.9949    0.9976    0.8841   0.05962    0.1034  0.001791
   288/299       12G   0.01042   0.01093 4.888e-05    0.0214       114       704    0.9881     0.995    0.9976    0.8842   0.05964    0.1034  0.001787
   289/299       12G   0.01054   0.01039 2.789e-05   0.02096       130       480     0.987    0.9949    0.9974    0.8839   0.05966    0.1034  0.001785
   290/299       12G   0.01036   0.01065 3.189e-05   0.02104       118       768     0.987     0.995    0.9974    0.8849   0.05969    0.1034  0.001782
   291/299       12G   0.01029   0.01036 2.827e-05   0.02068       141       608    0.9871    0.9936    0.9974    0.8851   0.05971    0.1035  0.001779
   292/299       12G   0.01038   0.01114 3.364e-05   0.02155       140       416    0.9872    0.9937    0.9974    0.8851   0.05974    0.1035  0.001775
   293/299       12G   0.01084   0.01131 2.934e-05   0.02218       116       512    0.9872    0.9937    0.9974    0.8852   0.05976    0.1035  0.001771
   294/299       12G    0.0105   0.01122 2.986e-05   0.02175       106       352    0.9872    0.9924    0.9974    0.8856   0.05979    0.1036  0.001766
   295/299       12G   0.01041   0.01027 2.601e-05    0.0207       130       448    0.9846     0.995    0.9975    0.8852    0.0598    0.1037  0.001763
   296/299       12G   0.01061   0.01136 2.632e-05   0.02199       120       704    0.9848     0.995    0.9975    0.8855   0.05981    0.1037  0.001759
   297/299       12G   0.01055   0.01101 2.877e-05   0.02158       118       736    0.9861     0.995    0.9975    0.8851   0.05982    0.1038  0.001755
   298/299       12G    0.0104   0.01136 2.573e-05   0.02178       134       384     0.986     0.995    0.9975    0.8846   0.05985    0.1038  0.001752
   299/299       12G   0.01064   0.01099 2.303e-05   0.02165       113       544    0.9828    0.9987    0.9975    0.8843   0.05985    0.1038  0.001751
